MediaId,EC_all_nofilt_k3,EC_all_nofilt_k10,EC_all_nofilt_k18,EC_all_nofilt_k21_kmin,EC_all_nofilt_k25,EC_all_nofilt_k40
401,4.4935,29.3937,20.6393,28.3585,29.4656,21.4832
402,7.8789,37.5678,21.7077,28.5054,25.4554,10.5421
403,10.7911,41.9327,23.1132,32.5611,30.8854,19.2126
403,10.7532,41.9039,23.3776,32.8782,31.1433,19.411
404,10.7729,42.219,21.8526,30.9685,33.3701,23.0048
405,14.5104,55.1445,41.4084,50.7333,51.9601,32.8985
406,13.3326,49.3254,27.8137,34.3369,30.5392,16.0019
407,-0.7091,17.1789,0.2047,2.2041,-3.9187,-10.7786
408,6.2303,29.3958,18.7371,23.752,27.1766,20.606
457,-13.2239,-0.3759,0.9521,9.1142,4.42,1.3653
848,10.2134,36.5264,25.2839,35.8878,33.6017,19.0304
849,9.692,34.2106,18.3671,25.9928,19.9259,4.7916
850,16.7946,46.7185,33.7286,44.8091,37.4188,21.8753
851,11.9163,37.3661,25.4634,33.0047,31.5064,20.6081
852,13.073,40.1541,25.5614,34.6978,32.3622,19.3012
853,9.2871,32.9383,19.1585,25.0303,22.9921,11.3089
854,1.3998,17.1712,-0.3884,1.4273,-5.5895,-17.0823
855,1.4779,17.3827,-0.5862,1.5178,-4.9906,-15.5937
856,8.1465,34.7749,16.7485,22.7227,19.211,8.0015
857,12.0864,42.8515,20.5683,28.2292,25.093,11.252
858,11.221,56.1116,51.9221,59.1414,54.8048,30.9149
859,10.9017,48.522,49.4343,59.683,57.1217,39.2603
860,9.017,38.5741,36.4153,46.1212,42.1454,25.4311
861,12.3514,49.615,49.7329,58.6499,53.1156,38.2934
862,-0.996,12.878,-2.7668,-1.0825,-5.7203,-16.1359
863,9.9374,35.1546,25.2057,33.5154,30.379,14.6964
1011,9.0678,35.2146,56.5275,59.4211,63.2052,54.9383
1012,2.0356,19.4192,30.4797,33.3728,36.1895,29.6762
1013,1.0851,15.7008,28.6938,32.8407,34.6109,27.757
1014,3.2955,16.3635,25.4189,27.1528,29.2334,21.5502
1015,2.9655,15.5977,24.5756,27.117,29.483,21.5361
1016,8.4359,22.2651,24.5891,30.3415,31.3058,24.6261
1017,-2.8593,-1.0165,-1.4201,-0.8086,0.1631,-0.7914
1018,0.0816,9.1585,15.8094,15.148,17.1523,15.0292
1019,9.6299,25.724,38.7747,42.3615,43.3685,33.9002
1020,2.5646,20.7445,33.3289,37.6749,40.2359,33.1152
1021,10.8534,57.1465,85.6718,96.0106,100.4168,85.4445
1022,9.1759,41.0419,53.1096,69.2077,75.4291,75.9119
1023,6.742,33.7654,37.415,63.4472,72.7884,75.5649
1024,14.4459,57.2944,61.942,101.5458,115.1283,128.0874
1023,6.2043,33.8577,52.7766,58.9986,62.2986,50.3691
1024,12.8452,57.8304,84.7054,93.4103,98.5836,88.367
1025,-4.0296,-2.8692,0.2458,0.0321,1.6404,1.8105
1026,13.7364,54.4604,75.245,80.2739,81.4475,75.769
1019,7.6076,23.3353,35.8338,40.0435,41.4594,31.1012
1021,10.4759,56.4551,84.8509,94.5443,98.9239,80.8118
1022,8.4646,40.8072,60.1993,65.0618,68.2767,59.3051
1024,14.7094,57.5746,83.9118,94.1338,99.1259,86.1127
1026,12.6537,51.4261,71.9061,78.2605,78.6448,72.9585
1461,11.6661,59.3976,82.5923,88.7591,95.4531,88.2997
1462,9.852,39.7424,56.1462,62.5438,64.9164,60.3855
1463,2.8194,26.7583,47.5951,51.4836,56.0573,51.5769
1464,3.5826,21.3085,36.6584,40.133,44.4594,41.4998
1465,6.0317,28.645,44.8765,48.8991,52.5692,48.3525
1466,0.5526,20.0238,35.1095,37.226,42.0104,37.8885
1467,-0.4142,2.9943,5.7831,4.9746,6.1813,5.4863
1468,5.1966,19.423,28.9782,30.5122,36.1927,36.6474
1469,18.4581,69.0823,100.0657,106.1564,113.324,98.9329
1470,12.9935,44.0723,62.2496,68.339,69.7012,60.8087
1471,14.0001,39.7659,54.358,59.2058,57.6333,47.1861
1472,12.26,36.3609,54.4226,59.63,59.5661,52.0705
1473,17.2592,65.8768,90.4827,97.5705,99.2473,90.7558
1474,13.2758,42.7478,66.9759,72.7883,74.5174,70.186
1475,-5.2368,-1.1884,-0.3434,0.9359,2.9768,5.3821
1476,11.4696,44.7201,61.0651,65.2875,65.7097,55.3923
1469,17.7913,66.9787,96.225,103.3885,110.5261,95.4841
1470,12.9206,43.1143,60.1731,66.331,68.1292,58.8334
1471,13.8644,39.5801,54.5315,60.1398,58.8541,47.4008
1472,12.0759,36.2607,53.347,58.8882,60.1662,50.2816
1473,16.0671,63.3687,88.1836,96.0985,98.5477,89.2792
1474,13.9202,44.6564,68.5534,74.5834,76.6983,69.2392
1475,-5.1813,-1.4896,-0.9013,0.2106,1.9731,3.2426
1476,10.6075,42.8215,60.2309,65.7062,65.8871,52.9652
1670,7.5454,31.0449,43.6751,49.498,53.3872,47.7057
1671,17.6639,60.804,81.9273,90.555,93.8323,87.5443
1672,5.5664,22.2062,36.2656,38.8067,44.4929,41.8874
1673,11.2204,48.1844,70.6825,75.3293,81.4791,71.5126
1674,14.4933,53.7617,75.2754,82.7759,86.3849,78.1348
1675,11.1464,58.5733,83.6094,89.8805,95.4615,83.7119
1676,-2.3136,0.4366,0.9169,0.7777,3.1005,4.1282
1677,10.0199,35.8524,50.9748,57.0118,62.4818,56.4712
1678,10.8613,33.9996,48.5218,53.1639,57.1164,46.2667
1679,16.2333,59.0965,81.0138,90.0605,91.3319,73.5054
1680,11.3087,46.0198,65.4022,70.8695,75.7499,60.3579
1681,8.1834,41.3348,63.3417,69.5287,72.8875,56.0495
1682,9.3523,41.4432,61.9031,67.2718,69.0777,51.3666
1683,7.6357,29.5779,44.5318,50.0827,52.0367,42.0318
1684,-4.8288,-3.8046,-1.0754,-1.1742,1.1707,3.5766
1685,9.8334,50.7721,74.4553,81.156,86.3275,67.5924
1944,13.9498,50.8225,68.7916,73.6443,79.2961,70.206
1944,14.8747,51.5093,68.5832,72.929,78.5861,69.5902
1945,19.6286,71.5653,97.3407,104.1469,107.8582,96.498
1946,5.6552,23.8444,33.7098,35.3888,37.1414,33.6257
1947,13.9778,48.0709,62.6652,68.9341,72.32,60.5787
1948,7.6772,33.7611,42.5136,46.7931,51.7041,43.0375
1949,11.2223,38.3079,51.9464,58.6075,61.603,46.6984
1950,-3.2297,-1.6774,0.2036,2.4485,4.6015,5.8759
1951,8.2444,32.0192,40.5042,44.4456,48.8978,42.0357
1952,15.4215,44.0673,46.0352,49.0245,48.6745,46.4891
1953,5.7147,30.9178,40.6829,44.124,48.6484,41.3647
1954,3.4063,17.5887,24.8639,29.7285,38.5393,34.6968
1955,3.8598,15.0071,19.9158,27.0337,35.841,30.977
1956,9.5518,26.6977,30.2512,38.4183,50.3486,56.3706
1957,3.7951,14.7485,18.2651,19.2918,25.6281,25.2864
1958,-4.6895,-4.2928,0.8712,-0.5428,2.5021,5.8868
1959,4.0966,11.2232,17.6522,21.3674,26.1242,24.7416
1960,5.6983,23.6006,27.3453,32.1667,40.1876,42.5913
1961,1.5039,16.5307,25.8309,28.8329,34.5837,34.7341
1962,7.4101,26.9173,33.3148,36.7715,45.0133,42.2815
1963,-0.1815,11.9414,20.1203,20.9252,24.9456,22.1092
1964,3.8233,23.7982,33.1559,34.8224,40.5567,37.4464
1965,5.95,23.162,24.22,30.0686,38.4354,37.8629
1966,-4.2331,-4.5863,-1.2759,-1.9346,0.622,2.5658
1967,9.1533,24.4685,23.6211,25.1087,32.2591,30.5723
1936,11.651,51.0622,67.0584,73.4691,77.3628,70.5961
1937,14.0698,46.9191,58.7115,64.6064,61.9402,62.359
1938,15.208,55.2623,72.091,79.0161,79.7843,73.413
1939,9.9049,41.3301,55.572,61.0132,61.5298,55.1419
1940,11.2255,45.3257,59.5968,64.2749,67.7066,62.1352
1941,12.9732,47.6272,63.4165,69.3327,71.9764,63.0985
1942,-2.1162,-0.2427,1.7835,1.7127,3.8335,4.3914
1943,7.2165,16.6704,21.8279,25.0415,27.5764,28.9979
2353,4.4185,16.31,19.6312,23.2179,29.0077,27.7151
2354,3.9872,17.0362,23.1814,30.1985,35.4186,30.4303
2355,-12.5779,2.0448,3.8873,13.55,9.457,8.2528
2355,8.7514,26.5513,32.4149,38.8046,43.4054,38.1303
2356,8.6187,26.8107,30.2015,35.9768,43.1317,35.8594
2357,5.8425,22.2248,30.1138,34.8408,38.1672,33.7002
2358,3.6255,15.9258,20.7716,21.5486,27.5636,26.6436
2359,-0.8705,0.7464,5.0635,4.8595,6.4594,4.8697
2360,7.1823,16.9676,16.9329,19.8861,26.9924,29.6782
2361,7.5363,25.4237,25.0782,27.7539,34.9422,31.7002
2362,8.1198,20.2673,17.8402,24.461,33.473,32.0697
2363,4.7239,22.3966,26.9447,30.8236,38.0016,37.753
2364,4.9751,26.0763,34.5612,38.1062,41.7027,35.6077
2365,4.1698,14.1874,22.5216,24.558,29.1704,28.7603
2366,6.099,21.6575,30.3764,32.4119,39.085,36.54
2367,-0.3969,0.3231,3.6592,0.7009,2.6758,2.9406
2368,8.9498,22.3272,26.7765,29.2309,34.5738,35.2864
2737,4.0489,16.1527,24.3147,27.2298,32.3789,28.1995
2738,7.1803,18.7298,25.9055,27.988,32.0296,25.79
2739,4.4373,19.5566,28.9355,31.4071,36.2235,31.9267
2740,3.6287,15.2947,22.5612,26.3448,30.4802,23.5326
2741,7.6235,26.318,36.0843,39.574,45.0481,35.1025
2742,8.1574,30.0344,41.5681,46.1675,49.5094,38.7925
2743,-5.1885,-1.4986,3.3791,4.8568,5.2905,2.2116
2744,7.2179,21.7685,25.0981,27.7665,34.2944,27.5826
2745,10.5814,39.0959,48.986,55.2329,57.899,44.8654
2746,10.9618,25.9448,31.0354,33.6771,34.907,28.4928
2747,7.1604,26.3701,33.8527,38.3935,41.4219,30.7262
2748,5.8657,14.6562,15.3393,15.2234,18.1761,13.2571
2749,9.281,28.0923,33.5685,36.2507,41.643,34.105
2750,11.7666,35.7448,47.5702,53.9061,57.7441,47.3556
2751,-3.8891,-2.2816,3.1602,3.055,4.0994,2.9247
2752,2.7579,12.6872,18.3873,21.4903,25.5445,20.5746
2753,3.1584,15.7197,22.8179,26.7068,30.1551,23.7356
2754,2.5237,15.2918,22.1492,26.3329,31.1495,23.3681
2755,4.6945,14.0718,20.3627,22.5356,26.7718,22.1272
2756,4.517,24.6744,38.2728,41.6738,43.6697,36.6148
2757,6.0859,21.8952,34.5095,37.3913,39.0993,29.4209
2758,6.6169,27.6511,43.6636,49.2373,51.2715,41.761
2759,-0.1475,-0.8507,5.0508,3.4198,3.906,3.5734
2760,11.331,23.4185,38.4558,43.1459,43.0056,31.6651
2761,6.966,14.1925,23.8029,25.8643,31.1905,30.0826
2762,5.5285,16.3408,28.2582,30.9998,33.0501,25.713
2763,7.7503,13.2871,21.9665,24.0208,26.3226,23.7217
2764,7.1315,17.5616,30.6959,32.8203,34.8219,29.4707
2765,8.2305,30.1611,45.1186,48.9121,51.3135,36.6223
2766,7.1941,22.4894,41.6232,45.0297,48.4452,36.3204
2767,-3.3431,-3.7978,0.887,0.1455,2.7073,5.4802
2767,-3.5943,-3.1014,1.0729,0.2863,3.217,4.9401
2768,5.2028,17.8519,29.8705,31.7416,35.4919,34.3514
2777,4.8631,15.7134,28.2109,30.1394,32.2395,24.0179
2778,4.7128,11.0733,19.688,24.5344,27.2252,17.6275
2779,2.8582,7.1902,18.0267,19.6561,20.5145,13.5947
2777,3.7309,13.426,26.0459,28.6716,30.0522,20.1388
2780,3.7129,13.3947,27.2632,28.4816,29.5424,18.5644
2781,5.2203,16.0267,32.443,36.3354,36.0737,20.6737
2782,4.5046,30.086,48.7823,52.8358,55.004,38.7117
2783,-3.3436,-2.2466,1.741,1.6469,1.4778,-3.41
2784,5.3235,21.5845,32.3703,35.7955,35.4269,24.3895
2785,5.2527,26.7349,44.2041,48.4317,48.5974,32.3293
2786,5.5754,25.4553,37.461,41.3256,43.2562,28.5158
2787,8.8337,33.8188,48.6807,52.4744,54.8268,38.3081
2788,9.1564,29.3135,40.0815,44.616,45.0885,25.9954
2789,10.2083,31.3205,47.2786,50.5177,50.6016,34.0998
2790,8.2981,29.9468,50.8653,55.3628,58.5312,43.2355
2791,-2.9154,-1.0415,3.8454,3.8406,4.02,-1.9703
2792,5.4795,12.0194,26.6985,27.5641,27.9312,15.8339
3041,7.3799,30.3899,49.9993,56.0277,59.1491,47.4547
3042,10.0736,31.7819,55.5317,59.5969,62.2415,55.6378
3043,10.3284,32.7558,52.7005,59.2433,61.0181,48.9408
3044,11.1172,28.9293,51.8563,59.8877,59.1203,47.3693
3045,5.8581,24.6545,43.6112,47.7694,47.745,33.8818
3046,3.4904,20.008,35.8516,38.0271,39.1793,30.1307
3047,-5.1534,-4.6179,-0.0002,-0.4715,-0.0272,-0.529
3048,3.5379,19.533,34.2369,37.4438,40.7259,35.6287
3161,16.3926,58.5297,79.0235,87.7689,85.7214,50.7074
3162,9.604,34.9448,50.6036,56.3152,55.1666,30.7056
3163,12.6218,41.858,71.1208,81.3551,76.6468,50.3943
3161,16.1162,57.3998,77.9059,87.2694,84.462,49.2456
3164,8.8162,20.8488,32.3564,35.1747,33.4352,23.6127
3165,20.7395,70.671,96.521,106.3372,103.5929,75.3979
3166,13.0433,49.8292,74.3701,82.8304,82.1989,57.5171
3167,-3.3094,-1.4151,2.9453,1.5528,3.0047,2.6926
3168,9.3802,39.7496,60.536,64.459,61.2006,40.5339
3169,12.456,42.6041,67.3601,72.4967,70.611,49.439
3170,18.3295,62.0011,84.2104,93.8219,91.2639,68.4261
3171,15.3958,54.6352,76.1808,84.5096,82.041,58.0166
3172,5.0008,25.2038,45.809,49.2038,49.2098,41.296
3173,14.3132,72.6657,103.9128,110.706,110.5027,87.3193
3174,13.846,67.761,98.3646,104.5895,106.6096,88.1661
3175,-3.5228,-2.1083,1.5487,0.1861,0.616,0.2945
3176,14.9677,62.5305,90.8134,95.8317,95.0716,74.8523
3177,13.9232,60.6728,90.9147,97.1665,97.9772,75.7757
3178,11.0101,44.4195,67.9164,73.9373,73.5218,53.1015
3179,8.4215,36.3589,59.0804,63.8388,63.7995,41.5736
3180,3.3406,22.9821,40.3211,43.1441,44.3828,34.8422
3181,5.0216,23.6935,40.8549,45.5079,45.503,32.08
3182,11.4898,52.4697,79.8589,87.0254,87.7495,60.9368
3183,-3.2388,-1.5605,4.0126,3.3966,4.5304,5.7606
3184,8.9024,42.8719,64.7467,68.4394,69.8013,53.4671
3185,8.6841,43.2575,68.0532,74.3327,76.5922,63.9816
3186,3.47,14.4569,28.1344,30.7495,32.1365,25.033
3187,8.4597,32.3568,53.6608,59.7625,60.5327,47.4027
3188,14.0515,54.5009,82.2522,91.9961,94.4664,78.1879
3189,10.4599,39.133,56.7121,63.5871,64.1999,53.9044
3190,20.5718,59.667,71.6338,79.2818,74.7717,64.2258
3191,-3.2084,-1.6332,2.7055,2.7294,2.8115,2.0852
3192,1.3734,11.0116,18.8813,22.0225,23.9721,20.0673
445,10.4743,30.6715,24.3401,33.4699,34.0703,30.418
446,7.6924,36.2306,21.6008,29.1348,25.8007,14.4361
447,6.7615,29.9367,13.5432,18.2911,16.3792,3.499
448,8.8114,36.5481,18.5264,24.7582,20.6739,7.7534
449,5.6622,31.2009,20.8206,26.1793,24.5662,11.9303
450,9.3034,38.0585,20.0345,25.716,20.8313,7.7798
451,0.5571,16.9968,-1.7911,-0.1955,-6.2769,-13.8105
452,10.2911,38.2056,16.328,23.8638,20.4042,3.4842
453,5.0043,22.6702,6.1209,11.8782,10.9138,6.4201
454,6.9042,29.9064,9.7199,14.6629,14.4703,9.8088
455,6.7776,35.9958,37.1014,47.082,49.0243,39.6034
456,2.6143,22.0205,14.2317,19.3719,20.0129,14.2788
458,6.7002,31.1296,12.1768,18.4484,14.3762,5.7247
459,-1.0675,13.4914,-1.8875,1.0798,-1.9466,-5.7555
460,5.8993,24.9345,9.6671,15.5098,18.2304,11.8306
3956,9.5889,36.8947,56.0301,64.3476,66.7245,51.3034
3957,6.2975,20.3937,24.083,29.0501,35.0632,28.8322
3958,2.1535,17.3387,25.8489,29.9247,34.7348,28.0451
3959,4.8483,17.107,23.224,31.0983,36.6967,30.0634
3960,5.7371,16.753,22.0223,26.4478,30.0578,27.0641
3961,7.8515,18.5919,27.2367,31.6921,35.0364,28.6809
3962,-4.1594,-4.3123,-0.2964,0.9952,1.8069,2.6138
3963,1.1304,5.211,8.794,12.924,15.8788,12.4614
3964,9.54,24.4974,36.8384,43.5745,46.7454,39.5001
3965,7.3001,21.5402,33.6858,35.6153,39.9647,36.2229
3966,4.4389,17.4078,28.0908,29.957,34.2197,30.8997
3967,4.2706,9.1707,9.4224,9.4364,13.3825,11.3611
3968,6.0056,23.0069,37.7074,41.0205,43.9431,32.3761
3969,6.3512,17.5339,25.1388,28.8209,34.2273,26.3622
3970,-3.9651,-4.3413,0.9475,-0.8153,0.3975,1.434
3971,0.9512,4.336,6.8406,8.6635,12.9635,11.8364
3972,3.5292,10.0555,14.3769,16.4344,20.9374,18.6745
3973,3.7018,10.4292,14.4102,15.9894,20.3006,16.1797
3974,3.094,8.8006,13.1109,13.3152,18.5813,16.6555
3975,5.4243,12.2783,16.1132,18.8044,24.0735,22.2355
3976,5.4925,14.9806,23.6639,24.5482,27.7527,22.2199
3977,2.8812,16.6025,25.0402,26.6796,32.2676,29.4277
3978,-1.8823,-2.6396,0.5403,-1.4745,-0.593,0.2714
3979,-0.6822,2.4554,2.3572,4.2507,7.5622,8.6411
3980,4.5169,23.6451,35.9746,37.8504,38.9173,29.2733
3981,1.3254,6.826,14.495,15.7461,19.9633,18.4381
3982,2.7175,20.7071,32.0501,34.2629,37.3974,29.2499
3983,5.425,19.1563,36.2033,39.6708,42.0942,36.9975
3984,5.0778,18.3011,34.2126,36.67,40.1559,36.7021
3985,9.6311,33.3476,53.8747,59.6416,59.0962,47.2248
3986,-5.801,-4.4137,-1.0118,-1.6523,-1.1768,-1.2419
3987,0.7124,4.5371,7.0752,10.4721,13.303,12.3259
3988,14.169,49.2413,73.2084,83.6398,84.6804,65.3646
3989,17.6845,50.9635,81.8677,94.0137,95.7913,74.9522
3990,11.6655,43.389,69.3853,78.1157,80.9125,66.2021
3991,13.7658,43.8405,70.2608,80.509,81.9223,64.6661
3992,11.451,30.7911,48.3632,55.9288,57.3529,46.1209
3992,10.0192,29.5687,47.6952,56.222,57.5076,45.9298
3993,12.2306,45.1804,70.7002,80.4547,82.7188,63.6916
3994,-5.1868,-3.2915,0.9223,2.1348,4.1915,2.8659
3995,3.4893,10.8372,18.6697,26.9287,28.2143,25.5873
4148,11.7835,24.3383,22.0364,28.6271,33.5693,27.9461
4149,8.4341,24.8924,29.2279,36.0108,41.4282,27.4831
4150,8.6318,20.2351,17.7376,25.6669,32.5505,24.5469
4151,10.5638,23.8046,25.3145,36.2159,44.7066,32.5302
4152,10.4846,25.0067,30.997,40.3241,45.4003,30.2733
4153,4.427,14.537,12.7261,17.0829,21.4462,16.4793
4154,-2.2353,-0.6428,-0.2299,-2.5643,-2.8106,-4.6047
4155,6.1934,22.5946,31.7927,37.4902,42.1962,27.645
4156,3.8544,22.7305,25.5625,26.6658,31.8689,24.5905
4157,13.5372,38.1095,35.3655,36.2274,45.4619,30.8382
4158,8.0843,33.4177,43.5416,48.1828,51.1979,38.4796
4159,14.8172,31.3734,58.7434,57.9024,62.3562,51.7052
4160,6.7612,27.8108,33.4649,35.9379,40.7232,29.6599
4161,13.3082,38.5036,25.1623,25.237,33.2631,29.7287
4162,-2.5809,-1.1479,-3.6361,-4.3372,-4.7522,-7.8927
4163,4.3762,16.762,18.9854,23.1026,27.2633,25.4715
4460,7.9558,33.3261,50.5249,54.0407,56.9183,39.9259
4461,5.681,14.761,20.6544,24.1786,25.1885,16.894
4462,5.8494,14.9075,15.8687,19.4233,23.6141,16.5092
4460,6.0708,30.4912,47.0373,51.9283,54.1791,37.6071
4463,5.5851,19.4277,28.984,36.183,40.8342,32.4593
4464,8.5051,18.4045,22.8239,29.5832,36.8541,48.6516
4465,2.8801,8.2304,13.8436,15.5661,20.4818,24.9664
4466,-2.9498,-2.0336,-0.3234,-3.392,-2.6327,-3.868
4467,7.0654,9.7396,16.33,17.7755,22.5858,26.3307
4468,2.9823,16.7373,26.9907,35.1693,40.6231,28.02
4469,5.1192,17.5165,27.4695,35.5764,40.9779,27.6211
4470,7.1065,18.3535,22.3632,26.8707,32.3516,20.154
4471,7.2976,16.8141,22.8111,27.355,27.858,23.0752
4472,2.8271,10.5466,15.8547,18.64,21.8069,17.2587
4473,7.4913,19.5967,23.1195,32.8146,39.0007,31.0153
4474,-2.2181,-0.539,-0.9087,-1.7089,-1.8226,-4.328
4475,4.6199,9.4826,11.7549,18.1712,22.4341,16.878
